# Temperatura_=_20.0
# Concentracion g/m^3_=_18000.0
# C_Vs_to_Am_M_A/Vsm_=_116720831517.84952
# pendiente_HvsI_1/m_=_3716.3
# ordenada_HvsI_A/m_=_1297.0
# frecuencia_Hz_=_108098.19158985562
# Promedio de 23 ciclos

Tiempo_(s)	Campo_(V.s)	Magnetizacion_(V.s)	Campo_(kA/m)	Magnetizacion_(A/m)
0.000000e+00	-7.023248e-09	-7.613703e-09	-5.692764e+01	-8.849395e+02
1.000000e-08	-7.023422e-09	-7.612987e-09	-5.692905e+01	-8.849041e+02
2.000000e-08	-7.023426e-09	-7.615928e-09	-5.692909e+01	-8.848553e+02
3.000000e-08	-7.023223e-09	-7.619026e-09	-5.692744e+01	-8.847940e+02
4.000000e-08	-7.022752e-09	-7.620586e-09	-5.692363e+01	-8.847207e+02
5.000000e-08	-7.021911e-09	-7.622424e-09	-5.691681e+01	-8.846362e+02
6.000000e-08	-7.020624e-09	-7.620822e-09	-5.690637e+01	-8.845411e+02
7.000000e-08	-7.018861e-09	-7.608879e-09	-5.689209e+01	-8.844358e+02
8.000000e-08	-7.016562e-09	-7.600929e-09	-5.687345e+01	-8.843210e+02
9.000000e-08	-7.013738e-09	-7.623280e-09	-5.685056e+01	-8.841972e+02
1.000000e-07	-7.010459e-09	-7.654361e-09	-5.682399e+01	-8.840648e+02
1.100000e-07	-7.006817e-09	-7.637247e-09	-5.679446e+01	-8.839241e+02
1.200000e-07	-7.002940e-09	-7.582115e-09	-5.676304e+01	-8.837755e+02
1.300000e-07	-6.998899e-09	-7.584116e-09	-5.673028e+01	-8.836194e+02
1.400000e-07	-6.994667e-09	-7.632674e-09	-5.669598e+01	-8.834558e+02
1.500000e-07	-6.990165e-09	-7.589954e-09	-5.665949e+01	-8.832851e+02
1.600000e-07	-6.985329e-09	-7.583433e-09	-5.662029e+01	-8.831072e+02
1.700000e-07	-6.980164e-09	-7.708057e-09	-5.657843e+01	-8.829223e+02
1.800000e-07	-6.974664e-09	-7.667920e-09	-5.653385e+01	-8.827303e+02
1.900000e-07	-6.968843e-09	-7.576352e-09	-5.648666e+01	-8.825312e+02
2.000000e-07	-6.962734e-09	-7.692154e-09	-5.643714e+01	-8.823249e+02
2.100000e-07	-6.956277e-09	-7.692636e-09	-5.638481e+01	-8.821111e+02
2.200000e-07	-6.949453e-09	-7.573963e-09	-5.632949e+01	-8.818897e+02
2.300000e-07	-6.942314e-09	-7.644500e-09	-5.627163e+01	-8.816603e+02
2.400000e-07	-6.934877e-09	-7.668379e-09	-5.621135e+01	-8.814228e+02
2.500000e-07	-6.927178e-09	-7.565384e-09	-5.614894e+01	-8.811767e+02
2.600000e-07	-6.919282e-09	-7.618626e-09	-5.608494e+01	-8.809215e+02
2.700000e-07	-6.911219e-09	-7.650336e-09	-5.601958e+01	-8.806570e+02
2.800000e-07	-6.902913e-09	-7.555332e-09	-5.595226e+01	-8.803826e+02
2.900000e-07	-6.894318e-09	-7.579923e-09	-5.588259e+01	-8.800979e+02
3.000000e-07	-6.885394e-09	-7.601398e-09	-5.581026e+01	-8.798023e+02
3.100000e-07	-6.876006e-09	-7.549305e-09	-5.573416e+01	-8.794953e+02
3.200000e-07	-6.866071e-09	-7.581593e-09	-5.565364e+01	-8.791765e+02
3.300000e-07	-6.855643e-09	-7.603880e-09	-5.556911e+01	-8.788453e+02
3.400000e-07	-6.844801e-09	-7.575016e-09	-5.548123e+01	-8.785011e+02
3.500000e-07	-6.833576e-09	-7.594216e-09	-5.539024e+01	-8.781436e+02
3.600000e-07	-6.822015e-09	-7.592734e-09	-5.529653e+01	-8.777721e+02
3.700000e-07	-6.810160e-09	-7.551715e-09	-5.520045e+01	-8.773861e+02
3.800000e-07	-6.797997e-09	-7.566689e-09	-5.510185e+01	-8.769853e+02
3.900000e-07	-6.785516e-09	-7.567443e-09	-5.500069e+01	-8.765691e+02
4.000000e-07	-6.772686e-09	-7.543081e-09	-5.489670e+01	-8.761373e+02
4.100000e-07	-6.759485e-09	-7.554520e-09	-5.478969e+01	-8.756893e+02
4.200000e-07	-6.745928e-09	-7.558319e-09	-5.467981e+01	-8.752250e+02
4.300000e-07	-6.732030e-09	-7.545975e-09	-5.456715e+01	-8.747439e+02
4.400000e-07	-6.717760e-09	-7.543066e-09	-5.445149e+01	-8.742459e+02
4.500000e-07	-6.703063e-09	-7.540812e-09	-5.433236e+01	-8.737307e+02
4.600000e-07	-6.687883e-09	-7.523724e-09	-5.420932e+01	-8.731983e+02
4.700000e-07	-6.672174e-09	-7.522586e-09	-5.408199e+01	-8.726485e+02
4.800000e-07	-6.656017e-09	-7.527298e-09	-5.395102e+01	-8.720813e+02
4.900000e-07	-6.639452e-09	-7.515242e-09	-5.381675e+01	-8.714967e+02
5.000000e-07	-6.622508e-09	-7.510776e-09	-5.367941e+01	-8.708948e+02
5.100000e-07	-6.605308e-09	-7.507376e-09	-5.354000e+01	-8.702757e+02
5.200000e-07	-6.587881e-09	-7.501481e-09	-5.339875e+01	-8.696396e+02
5.300000e-07	-6.570202e-09	-7.498305e-09	-5.325544e+01	-8.689866e+02
5.400000e-07	-6.552273e-09	-7.494434e-09	-5.311012e+01	-8.683172e+02
5.500000e-07	-6.534076e-09	-7.487161e-09	-5.296262e+01	-8.676315e+02
5.600000e-07	-6.515571e-09	-7.482879e-09	-5.281263e+01	-8.669300e+02
5.700000e-07	-6.496758e-09	-7.477926e-09	-5.266014e+01	-8.662131e+02
5.800000e-07	-6.477644e-09	-7.465521e-09	-5.250521e+01	-8.654812e+02
5.900000e-07	-6.458258e-09	-7.456795e-09	-5.234807e+01	-8.647347e+02
6.000000e-07	-6.438656e-09	-7.447156e-09	-5.218918e+01	-8.639743e+02
6.100000e-07	-6.418861e-09	-7.439480e-09	-5.202873e+01	-8.632003e+02
6.200000e-07	-6.398903e-09	-7.434379e-09	-5.186696e+01	-8.624135e+02
6.300000e-07	-6.378792e-09	-7.427854e-09	-5.170395e+01	-8.616142e+02
6.400000e-07	-6.358504e-09	-7.419866e-09	-5.153950e+01	-8.608031e+02
6.500000e-07	-6.337988e-09	-7.411944e-09	-5.137321e+01	-8.599808e+02
6.600000e-07	-6.317197e-09	-7.405390e-09	-5.120468e+01	-8.591478e+02
6.700000e-07	-6.296125e-09	-7.392378e-09	-5.103389e+01	-8.583047e+02
6.800000e-07	-6.274765e-09	-7.380938e-09	-5.086075e+01	-8.574520e+02
6.900000e-07	-6.253128e-09	-7.370949e-09	-5.068537e+01	-8.565903e+02
7.000000e-07	-6.231223e-09	-7.363846e-09	-5.050782e+01	-8.557201e+02
7.100000e-07	-6.209035e-09	-7.360535e-09	-5.032797e+01	-8.548418e+02
7.200000e-07	-6.186577e-09	-7.355618e-09	-5.014593e+01	-8.539559e+02
7.300000e-07	-6.163831e-09	-7.350425e-09	-4.996156e+01	-8.530628e+02
7.400000e-07	-6.140779e-09	-7.342606e-09	-4.977471e+01	-8.521628e+02
7.500000e-07	-6.117445e-09	-7.335223e-09	-4.958558e+01	-8.512563e+02
7.600000e-07	-6.093882e-09	-7.325427e-09	-4.939458e+01	-8.503435e+02
7.700000e-07	-6.070127e-09	-7.312643e-09	-4.920203e+01	-8.494247e+02
7.800000e-07	-6.046166e-09	-7.298444e-09	-4.900781e+01	-8.484999e+02
7.900000e-07	-6.021978e-09	-7.288357e-09	-4.881176e+01	-8.475693e+02
8.000000e-07	-5.997522e-09	-7.285385e-09	-4.861352e+01	-8.466329e+02
8.100000e-07	-5.972731e-09	-7.282040e-09	-4.841258e+01	-8.456907e+02
8.200000e-07	-5.947534e-09	-7.276979e-09	-4.820834e+01	-8.447426e+02
8.300000e-07	-5.921903e-09	-7.269250e-09	-4.800059e+01	-8.437883e+02
8.400000e-07	-5.895821e-09	-7.260978e-09	-4.778918e+01	-8.428278e+02
8.500000e-07	-5.869290e-09	-7.250631e-09	-4.757413e+01	-8.418607e+02
8.600000e-07	-5.842383e-09	-7.237152e-09	-4.735603e+01	-8.408867e+02
8.700000e-07	-5.815166e-09	-7.222989e-09	-4.713542e+01	-8.399054e+02
8.800000e-07	-5.787673e-09	-7.210677e-09	-4.691258e+01	-8.389163e+02
8.900000e-07	-5.759938e-09	-7.202890e-09	-4.668777e+01	-8.379189e+02
9.000000e-07	-5.732011e-09	-7.196782e-09	-4.646141e+01	-8.369127e+02
9.100000e-07	-5.703916e-09	-7.190447e-09	-4.623368e+01	-8.358970e+02
9.200000e-07	-5.675627e-09	-7.182450e-09	-4.600438e+01	-8.348712e+02
9.300000e-07	-5.647115e-09	-7.175187e-09	-4.577327e+01	-8.338346e+02
9.400000e-07	-5.618382e-09	-7.167040e-09	-4.554037e+01	-8.327866e+02
9.500000e-07	-5.589434e-09	-7.155823e-09	-4.530573e+01	-8.317263e+02
9.600000e-07	-5.560248e-09	-7.144814e-09	-4.506916e+01	-8.306530e+02
9.700000e-07	-5.530828e-09	-7.135219e-09	-4.483070e+01	-8.295659e+02
9.800000e-07	-5.501183e-09	-7.128477e-09	-4.459041e+01	-8.284643e+02
9.900000e-07	-5.471320e-09	-7.122462e-09	-4.434835e+01	-8.273473e+02
1.000000e-06	-5.441227e-09	-7.114190e-09	-4.410443e+01	-8.262142e+02
1.010000e-06	-5.410904e-09	-7.102686e-09	-4.385864e+01	-8.250641e+02
1.020000e-06	-5.380388e-09	-7.091039e-09	-4.361129e+01	-8.238964e+02
1.030000e-06	-5.349652e-09	-7.080816e-09	-4.336216e+01	-8.227103e+02
1.040000e-06	-5.318690e-09	-7.069494e-09	-4.311119e+01	-8.215049e+02
1.050000e-06	-5.287524e-09	-7.056093e-09	-4.285857e+01	-8.202798e+02
1.060000e-06	-5.256149e-09	-7.040545e-09	-4.260426e+01	-8.190342e+02
1.070000e-06	-5.224575e-09	-7.027345e-09	-4.234833e+01	-8.177675e+02
1.080000e-06	-5.192795e-09	-7.016167e-09	-4.209073e+01	-8.164791e+02
1.090000e-06	-5.160800e-09	-7.004709e-09	-4.183140e+01	-8.151687e+02
1.100000e-06	-5.128612e-09	-6.993320e-09	-4.157049e+01	-8.138355e+02
1.110000e-06	-5.096216e-09	-6.983011e-09	-4.130790e+01	-8.124794e+02
1.120000e-06	-5.063566e-09	-6.974153e-09	-4.104325e+01	-8.111000e+02
1.130000e-06	-5.030610e-09	-6.963727e-09	-4.077612e+01	-8.096969e+02
1.140000e-06	-4.997315e-09	-6.950713e-09	-4.050626e+01	-8.082700e+02
1.150000e-06	-4.963672e-09	-6.935433e-09	-4.023355e+01	-8.068191e+02
1.160000e-06	-4.929659e-09	-6.921021e-09	-3.995786e+01	-8.053442e+02
1.170000e-06	-4.895286e-09	-6.907736e-09	-3.967924e+01	-8.038452e+02
1.180000e-06	-4.860579e-09	-6.895170e-09	-3.939793e+01	-8.023222e+02
1.190000e-06	-4.825586e-09	-6.882666e-09	-3.911429e+01	-8.007752e+02
1.200000e-06	-4.790324e-09	-6.868684e-09	-3.882847e+01	-7.992046e+02
1.210000e-06	-4.754824e-09	-6.855325e-09	-3.854072e+01	-7.976103e+02
1.220000e-06	-4.719140e-09	-6.840951e-09	-3.825148e+01	-7.959929e+02
1.230000e-06	-4.683269e-09	-6.824159e-09	-3.796072e+01	-7.943526e+02
1.240000e-06	-4.647227e-09	-6.806572e-09	-3.766858e+01	-7.926897e+02
1.250000e-06	-4.611042e-09	-6.790703e-09	-3.737528e+01	-7.910047e+02
1.260000e-06	-4.574705e-09	-6.776392e-09	-3.708074e+01	-7.892980e+02
1.270000e-06	-4.538207e-09	-6.761660e-09	-3.678490e+01	-7.875702e+02
1.280000e-06	-4.501546e-09	-6.744658e-09	-3.648775e+01	-7.858216e+02
1.290000e-06	-4.464695e-09	-6.725027e-09	-3.618905e+01	-7.840529e+02
1.300000e-06	-4.427664e-09	-6.706355e-09	-3.588889e+01	-7.822646e+02
1.310000e-06	-4.390475e-09	-6.689384e-09	-3.558745e+01	-7.804571e+02
1.320000e-06	-4.353098e-09	-6.672455e-09	-3.528449e+01	-7.786311e+02
1.330000e-06	-4.315509e-09	-6.655538e-09	-3.497981e+01	-7.767870e+02
1.340000e-06	-4.277723e-09	-6.639411e-09	-3.467353e+01	-7.749253e+02
1.350000e-06	-4.239741e-09	-6.624097e-09	-3.436566e+01	-7.730464e+02
1.360000e-06	-4.201570e-09	-6.606929e-09	-3.405626e+01	-7.711508e+02
1.370000e-06	-4.163223e-09	-6.586161e-09	-3.374544e+01	-7.692390e+02
1.380000e-06	-4.124701e-09	-6.565408e-09	-3.343319e+01	-7.673111e+02
1.390000e-06	-4.086003e-09	-6.548090e-09	-3.311952e+01	-7.653674e+02
1.400000e-06	-4.047129e-09	-6.532510e-09	-3.280443e+01	-7.634083e+02
1.410000e-06	-4.008092e-09	-6.515337e-09	-3.248801e+01	-7.614338e+02
1.420000e-06	-3.968906e-09	-6.496847e-09	-3.217038e+01	-7.594440e+02
1.430000e-06	-3.929563e-09	-6.480597e-09	-3.185148e+01	-7.574388e+02
1.440000e-06	-3.890055e-09	-6.467093e-09	-3.153125e+01	-7.554183e+02
1.450000e-06	-3.850410e-09	-6.451978e-09	-3.120990e+01	-7.533821e+02
1.460000e-06	-3.810628e-09	-6.432657e-09	-3.088744e+01	-7.513300e+02
1.470000e-06	-3.770689e-09	-6.411262e-09	-3.056371e+01	-7.492617e+02
1.480000e-06	-3.730583e-09	-6.391547e-09	-3.023862e+01	-7.471765e+02
1.490000e-06	-3.690319e-09	-6.374690e-09	-2.991226e+01	-7.450741e+02
1.500000e-06	-3.649880e-09	-6.358117e-09	-2.958448e+01	-7.429537e+02
1.510000e-06	-3.609245e-09	-6.338577e-09	-2.925511e+01	-7.408145e+02
1.520000e-06	-3.568399e-09	-6.318415e-09	-2.892403e+01	-7.386556e+02
1.530000e-06	-3.527337e-09	-6.301645e-09	-2.859120e+01	-7.364762e+02
1.540000e-06	-3.486092e-09	-6.285424e-09	-2.825688e+01	-7.342750e+02
1.550000e-06	-3.444650e-09	-6.265544e-09	-2.792097e+01	-7.320511e+02
1.560000e-06	-3.402978e-09	-6.241883e-09	-2.758320e+01	-7.298031e+02
1.570000e-06	-3.361079e-09	-6.218197e-09	-2.724358e+01	-7.275298e+02
1.580000e-06	-3.318976e-09	-6.196636e-09	-2.690231e+01	-7.252296e+02
1.590000e-06	-3.276666e-09	-6.175419e-09	-2.655937e+01	-7.229013e+02
1.600000e-06	-3.234135e-09	-6.154726e-09	-2.621463e+01	-7.205432e+02
1.610000e-06	-3.191405e-09	-6.133982e-09	-2.586828e+01	-7.181537e+02
1.620000e-06	-3.148509e-09	-6.114693e-09	-2.552058e+01	-7.157313e+02
1.630000e-06	-3.105462e-09	-6.097303e-09	-2.517166e+01	-7.132743e+02
1.640000e-06	-3.062265e-09	-6.077118e-09	-2.482152e+01	-7.107809e+02
1.650000e-06	-3.018937e-09	-6.052480e-09	-2.447032e+01	-7.082495e+02
1.660000e-06	-2.975482e-09	-6.028730e-09	-2.411809e+01	-7.056783e+02
1.670000e-06	-2.931904e-09	-6.009828e-09	-2.376486e+01	-7.030655e+02
1.680000e-06	-2.888198e-09	-5.989478e-09	-2.341060e+01	-7.004095e+02
1.690000e-06	-2.844367e-09	-5.963675e-09	-2.305532e+01	-6.977085e+02
1.700000e-06	-2.800451e-09	-5.935675e-09	-2.269936e+01	-6.949609e+02
1.710000e-06	-2.756442e-09	-5.911076e-09	-2.234264e+01	-6.921649e+02
1.720000e-06	-2.712316e-09	-5.889851e-09	-2.198497e+01	-6.893190e+02
1.730000e-06	-2.668100e-09	-5.867189e-09	-2.162657e+01	-6.864216e+02
1.740000e-06	-2.623811e-09	-5.840691e-09	-2.126758e+01	-6.834713e+02
1.750000e-06	-2.579411e-09	-5.811514e-09	-2.090769e+01	-6.804665e+02
1.760000e-06	-2.534871e-09	-5.783368e-09	-2.054667e+01	-6.774060e+02
1.770000e-06	-2.490233e-09	-5.756431e-09	-2.018485e+01	-6.742884e+02
1.780000e-06	-2.445521e-09	-5.728144e-09	-1.982244e+01	-6.711127e+02
1.790000e-06	-2.400711e-09	-5.697304e-09	-1.945922e+01	-6.678778e+02
1.800000e-06	-2.355797e-09	-5.667169e-09	-1.909516e+01	-6.645826e+02
1.810000e-06	-2.310779e-09	-5.640166e-09	-1.873027e+01	-6.612263e+02
1.820000e-06	-2.265667e-09	-5.611935e-09	-1.836461e+01	-6.578082e+02
1.830000e-06	-2.220453e-09	-5.579270e-09	-1.799813e+01	-6.543276e+02
1.840000e-06	-2.175111e-09	-5.543084e-09	-1.763060e+01	-6.507840e+02
1.850000e-06	-2.129650e-09	-5.507904e-09	-1.726211e+01	-6.471770e+02
1.860000e-06	-2.084076e-09	-5.475947e-09	-1.689270e+01	-6.435062e+02
1.870000e-06	-2.038406e-09	-5.444185e-09	-1.652252e+01	-6.397715e+02
1.880000e-06	-1.992641e-09	-5.408185e-09	-1.615157e+01	-6.359728e+02
1.890000e-06	-1.946786e-09	-5.369878e-09	-1.577989e+01	-6.321101e+02
1.900000e-06	-1.900853e-09	-5.335273e-09	-1.540758e+01	-6.281835e+02
1.910000e-06	-1.854808e-09	-5.302098e-09	-1.503435e+01	-6.241933e+02
1.920000e-06	-1.808662e-09	-5.266804e-09	-1.466031e+01	-6.201398e+02
1.930000e-06	-1.762468e-09	-5.230077e-09	-1.428588e+01	-6.160233e+02
1.940000e-06	-1.716196e-09	-5.194322e-09	-1.391082e+01	-6.118443e+02
1.950000e-06	-1.669810e-09	-5.160069e-09	-1.353483e+01	-6.076033e+02
1.960000e-06	-1.623335e-09	-5.124091e-09	-1.315812e+01	-6.033009e+02
1.970000e-06	-1.576816e-09	-5.085579e-09	-1.278105e+01	-5.989378e+02
1.980000e-06	-1.530277e-09	-5.044843e-09	-1.240383e+01	-5.945145e+02
1.990000e-06	-1.483695e-09	-5.004068e-09	-1.202626e+01	-5.900318e+02
2.000000e-06	-1.437050e-09	-4.964388e-09	-1.164817e+01	-5.854903e+02
2.010000e-06	-1.390347e-09	-4.923246e-09	-1.126962e+01	-5.808908e+02
2.020000e-06	-1.343592e-09	-4.878948e-09	-1.089064e+01	-5.762338e+02
2.030000e-06	-1.296797e-09	-4.833473e-09	-1.051134e+01	-5.715200e+02
2.040000e-06	-1.249979e-09	-4.792003e-09	-1.013185e+01	-5.667499e+02
2.050000e-06	-1.203116e-09	-4.752902e-09	-9.751996e+00	-5.619242e+02
2.060000e-06	-1.156194e-09	-4.712043e-09	-9.371663e+00	-5.570432e+02
2.070000e-06	-1.109221e-09	-4.668648e-09	-8.990918e+00	-5.521074e+02
2.080000e-06	-1.062204e-09	-4.624875e-09	-8.609817e+00	-5.471169e+02
2.090000e-06	-1.015148e-09	-4.582579e-09	-8.228401e+00	-5.420721e+02
2.100000e-06	-9.680675e-10	-4.539809e-09	-7.846786e+00	-5.369729e+02
2.110000e-06	-9.209451e-10	-4.494398e-09	-7.464830e+00	-5.318192e+02
2.120000e-06	-8.737796e-10	-4.446664e-09	-7.082525e+00	-5.266108e+02
2.130000e-06	-8.265838e-10	-4.400011e-09	-6.699975e+00	-5.213474e+02
2.140000e-06	-7.793457e-10	-4.355132e-09	-6.317081e+00	-5.160285e+02
2.150000e-06	-7.320613e-10	-4.310507e-09	-5.933812e+00	-5.106533e+02
2.160000e-06	-6.847404e-10	-4.264837e-09	-5.550248e+00	-5.052209e+02
2.170000e-06	-6.373698e-10	-4.218916e-09	-5.166280e+00	-4.997304e+02
2.180000e-06	-5.899477e-10	-4.174164e-09	-4.781896e+00	-4.941805e+02
2.190000e-06	-5.425008e-10	-4.127812e-09	-4.397309e+00	-4.885698e+02
2.200000e-06	-4.950358e-10	-4.078430e-09	-4.012576e+00	-4.828967e+02
2.210000e-06	-4.475567e-10	-4.026502e-09	-3.627728e+00	-4.771595e+02
2.220000e-06	-4.000582e-10	-3.974931e-09	-3.242724e+00	-4.713562e+02
2.230000e-06	-3.525242e-10	-3.925591e-09	-2.857433e+00	-4.654846e+02
2.240000e-06	-3.049576e-10	-3.876204e-09	-2.471876e+00	-4.595424e+02
2.250000e-06	-2.573829e-10	-3.823973e-09	-2.086254e+00	-4.535272e+02
2.260000e-06	-2.098142e-10	-3.769153e-09	-1.700680e+00	-4.474363e+02
2.270000e-06	-1.622660e-10	-3.715208e-09	-1.315272e+00	-4.412670e+02
2.280000e-06	-1.147278e-10	-3.661211e-09	-9.299464e-01	-4.350162e+02
2.290000e-06	-6.718570e-11	-3.607043e-09	-5.445882e-01	-4.286809e+02
2.300000e-06	-1.962419e-11	-3.552426e-09	-1.590729e-01	-4.222580e+02
2.310000e-06	2.794126e-11	-3.496010e-09	2.264738e-01	-4.157440e+02
2.320000e-06	7.548000e-11	-3.439602e-09	6.118041e-01	-4.091357e+02
2.330000e-06	1.230079e-10	-3.381637e-09	9.970470e-01	-4.024296e+02
2.340000e-06	1.705080e-10	-3.322416e-09	1.382065e+00	-3.956222e+02
2.350000e-06	2.179833e-10	-3.263307e-09	1.766882e+00	-3.887099e+02
2.360000e-06	2.654542e-10	-3.204421e-09	2.151663e+00	-3.816893e+02
2.370000e-06	3.128996e-10	-3.144551e-09	2.536237e+00	-3.745566e+02
2.380000e-06	3.603189e-10	-3.082916e-09	2.920600e+00	-3.673085e+02
2.390000e-06	4.077162e-10	-3.019401e-09	3.304785e+00	-3.599414e+02
2.400000e-06	4.550934e-10	-2.954821e-09	3.688807e+00	-3.524519e+02
2.410000e-06	5.024621e-10	-2.890483e-09	4.072760e+00	-3.448367e+02
2.420000e-06	5.498178e-10	-2.823354e-09	4.456608e+00	-3.370926e+02
2.430000e-06	5.971418e-10	-2.755198e-09	4.840198e+00	-3.292165e+02
2.440000e-06	6.444352e-10	-2.687026e-09	5.223541e+00	-3.212056e+02
2.450000e-06	6.917121e-10	-2.618606e-09	5.606749e+00	-3.130570e+02
2.460000e-06	7.389807e-10	-2.549508e-09	5.989889e+00	-3.047684e+02
2.470000e-06	7.862382e-10	-2.474939e-09	6.372940e+00	-2.963373e+02
2.480000e-06	8.334762e-10	-2.396024e-09	6.755832e+00	-2.877618e+02
2.490000e-06	8.806973e-10	-2.316796e-09	7.138588e+00	-2.790400e+02
2.500000e-06	9.278917e-10	-2.240361e-09	7.521127e+00	-2.701705e+02
2.510000e-06	9.750254e-10	-2.166326e-09	7.903174e+00	-2.611520e+02
2.520000e-06	1.022121e-09	-2.092106e-09	8.284915e+00	-2.519836e+02
2.530000e-06	1.069197e-09	-2.014941e-09	8.666488e+00	-2.426649e+02
2.540000e-06	1.116247e-09	-1.933257e-09	9.047858e+00	-2.331957e+02
2.550000e-06	1.163239e-09	-1.849694e-09	9.428761e+00	-2.235760e+02
2.560000e-06	1.210168e-09	-1.763612e-09	9.809146e+00	-2.138064e+02
2.570000e-06	1.257061e-09	-1.674970e-09	1.018924e+01	-2.038879e+02
2.580000e-06	1.303907e-09	-1.585731e-09	1.056896e+01	-1.938218e+02
2.590000e-06	1.350703e-09	-1.497190e-09	1.094827e+01	-1.836097e+02
2.600000e-06	1.397452e-09	-1.410352e-09	1.132719e+01	-1.732537e+02
2.610000e-06	1.444120e-09	-1.322899e-09	1.170547e+01	-1.627565e+02
2.620000e-06	1.490693e-09	-1.233185e-09	1.208297e+01	-1.521208e+02
2.630000e-06	1.537199e-09	-1.141292e-09	1.245993e+01	-1.413500e+02
2.640000e-06	1.583637e-09	-1.046863e-09	1.283634e+01	-1.304478e+02
2.650000e-06	1.630000e-09	-9.508762e-10	1.321214e+01	-1.194182e+02
2.660000e-06	1.676276e-09	-8.549753e-10	1.358724e+01	-1.082659e+02
2.670000e-06	1.722458e-09	-7.586017e-10	1.396156e+01	-9.699557e+01
2.680000e-06	1.768544e-09	-6.610670e-10	1.433512e+01	-8.561249e+01
2.690000e-06	1.814549e-09	-5.623609e-10	1.470802e+01	-7.412224e+01
2.700000e-06	1.860480e-09	-4.622816e-10	1.508032e+01	-6.253071e+01
2.710000e-06	1.906302e-09	-3.615113e-10	1.545173e+01	-5.084413e+01
2.720000e-06	1.952016e-09	-2.594230e-10	1.582228e+01	-3.906903e+01
2.730000e-06	1.997650e-09	-1.557003e-10	1.619217e+01	-2.721223e+01
2.740000e-06	2.043192e-09	-5.151594e-11	1.656131e+01	-1.528078e+01
2.750000e-06	2.088639e-09	5.272425e-11	1.692969e+01	-3.282009e+00
2.760000e-06	2.133996e-09	1.582201e-10	1.729733e+01	8.776566e+00
2.770000e-06	2.179232e-09	2.655800e-10	1.766400e+01	2.088723e+01
2.780000e-06	2.224360e-09	3.728046e-10	1.802978e+01	3.304209e+01
2.790000e-06	2.269396e-09	4.787883e-10	1.839483e+01	4.523313e+01
2.800000e-06	2.314368e-09	5.828500e-10	1.875936e+01	5.745221e+01
2.810000e-06	2.359274e-09	6.874173e-10	1.912334e+01	6.969112e+01
2.820000e-06	2.404060e-09	7.923656e-10	1.948636e+01	8.194158e+01
2.830000e-06	2.448746e-09	8.959946e-10	1.984857e+01	9.419527e+01
2.840000e-06	2.493371e-09	1.000805e-09	2.021028e+01	1.064439e+02
2.850000e-06	2.537930e-09	1.106595e-09	2.057146e+01	1.186792e+02
2.860000e-06	2.582394e-09	1.211640e-09	2.093187e+01	1.308928e+02
