# Temperatura_=_20.0
# Concentracion g/m^3_=_18000.0
# C_Vs_to_Am_M_A/Vsm_=_116720831517.84952
# pendiente_HvsI_1/m_=_3716.3
# ordenada_HvsI_A/m_=_1297.0
# frecuencia_Hz_=_108502.97136399586
# Promedio de 27 ciclos

Tiempo_(s)	Campo_(V.s)	Magnetizacion_(V.s)	Campo_(kA/m)	Magnetizacion_(A/m)
0.000000e+00	-6.877818e-09	-7.060509e-09	-5.698893e+01	-8.230537e+02
1.000000e-08	-6.877823e-09	-7.059130e-09	-5.698897e+01	-8.229771e+02
2.000000e-08	-6.877517e-09	-7.062588e-09	-5.698643e+01	-8.228794e+02
3.000000e-08	-6.876876e-09	-7.070417e-09	-5.698111e+01	-8.227613e+02
4.000000e-08	-6.875926e-09	-7.074529e-09	-5.697325e+01	-8.226235e+02
5.000000e-08	-6.874714e-09	-7.073897e-09	-5.696320e+01	-8.224669e+02
6.000000e-08	-6.873233e-09	-7.067701e-09	-5.695093e+01	-8.222920e+02
7.000000e-08	-6.871459e-09	-7.055397e-09	-5.693623e+01	-8.220998e+02
8.000000e-08	-6.869342e-09	-7.042957e-09	-5.691869e+01	-8.218908e+02
9.000000e-08	-6.866861e-09	-7.032687e-09	-5.689813e+01	-8.216658e+02
1.000000e-07	-6.863966e-09	-7.044607e-09	-5.687415e+01	-8.214254e+02
1.100000e-07	-6.860539e-09	-7.072637e-09	-5.684575e+01	-8.211704e+02
1.200000e-07	-6.856606e-09	-7.077622e-09	-5.681316e+01	-8.209013e+02
1.300000e-07	-6.852413e-09	-7.049570e-09	-5.677842e+01	-8.206186e+02
1.400000e-07	-6.848167e-09	-6.997001e-09	-5.674324e+01	-8.203231e+02
1.500000e-07	-6.843781e-09	-7.022286e-09	-5.670689e+01	-8.200151e+02
1.600000e-07	-6.838898e-09	-7.080161e-09	-5.666644e+01	-8.196951e+02
1.700000e-07	-6.833505e-09	-6.995313e-09	-5.662175e+01	-8.193636e+02
1.800000e-07	-6.827961e-09	-6.961253e-09	-5.657582e+01	-8.190210e+02
1.900000e-07	-6.822201e-09	-7.055412e-09	-5.652808e+01	-8.186675e+02
2.000000e-07	-6.815954e-09	-7.044276e-09	-5.647633e+01	-8.183036e+02
2.100000e-07	-6.809471e-09	-6.962396e-09	-5.642261e+01	-8.179294e+02
2.200000e-07	-6.802912e-09	-6.989394e-09	-5.636826e+01	-8.175451e+02
2.300000e-07	-6.795959e-09	-7.036275e-09	-5.631065e+01	-8.171509e+02
2.400000e-07	-6.788587e-09	-6.946387e-09	-5.624956e+01	-8.167468e+02
2.500000e-07	-6.781030e-09	-6.942866e-09	-5.618695e+01	-8.163330e+02
2.600000e-07	-6.773176e-09	-7.012516e-09	-5.612187e+01	-8.159094e+02
2.700000e-07	-6.764946e-09	-6.947130e-09	-5.605368e+01	-8.154759e+02
2.800000e-07	-6.756546e-09	-6.925417e-09	-5.598407e+01	-8.150325e+02
2.900000e-07	-6.747839e-09	-6.978715e-09	-5.591193e+01	-8.145791e+02
3.000000e-07	-6.738662e-09	-6.942954e-09	-5.583589e+01	-8.141154e+02
3.100000e-07	-6.729244e-09	-6.890026e-09	-5.575785e+01	-8.136413e+02
3.200000e-07	-6.719581e-09	-6.943587e-09	-5.567779e+01	-8.131564e+02
3.300000e-07	-6.709366e-09	-6.955181e-09	-5.559315e+01	-8.126605e+02
3.400000e-07	-6.698701e-09	-6.903901e-09	-5.550478e+01	-8.121532e+02
3.500000e-07	-6.687830e-09	-6.930894e-09	-5.541470e+01	-8.116342e+02
3.600000e-07	-6.676607e-09	-6.932637e-09	-5.532171e+01	-8.111031e+02
3.700000e-07	-6.664997e-09	-6.892366e-09	-5.522551e+01	-8.105594e+02
3.800000e-07	-6.653077e-09	-6.906184e-09	-5.512674e+01	-8.100028e+02
3.900000e-07	-6.640812e-09	-6.907869e-09	-5.502511e+01	-8.094328e+02
4.000000e-07	-6.628246e-09	-6.883090e-09	-5.492100e+01	-8.088490e+02
4.100000e-07	-6.615421e-09	-6.899370e-09	-5.481473e+01	-8.082507e+02
4.200000e-07	-6.602249e-09	-6.906113e-09	-5.470559e+01	-8.076377e+02
4.300000e-07	-6.588736e-09	-6.870931e-09	-5.459362e+01	-8.070093e+02
4.400000e-07	-6.574993e-09	-6.873255e-09	-5.447975e+01	-8.063652e+02
4.500000e-07	-6.560993e-09	-6.877816e-09	-5.436375e+01	-8.057048e+02
4.600000e-07	-6.546718e-09	-6.858156e-09	-5.424546e+01	-8.050276e+02
4.700000e-07	-6.532158e-09	-6.859819e-09	-5.412482e+01	-8.043332e+02
4.800000e-07	-6.517277e-09	-6.861489e-09	-5.400151e+01	-8.036211e+02
4.900000e-07	-6.502089e-09	-6.850773e-09	-5.387567e+01	-8.028909e+02
5.000000e-07	-6.486567e-09	-6.846198e-09	-5.374705e+01	-8.021422e+02
5.100000e-07	-6.470689e-09	-6.844358e-09	-5.361549e+01	-8.013746e+02
5.200000e-07	-6.454486e-09	-6.826334e-09	-5.348124e+01	-8.005877e+02
5.300000e-07	-6.437989e-09	-6.819468e-09	-5.334454e+01	-7.997811e+02
5.400000e-07	-6.421189e-09	-6.819018e-09	-5.320534e+01	-7.989546e+02
5.500000e-07	-6.404091e-09	-6.811670e-09	-5.306367e+01	-7.981079e+02
5.600000e-07	-6.386710e-09	-6.806071e-09	-5.291965e+01	-7.972406e+02
5.700000e-07	-6.369033e-09	-6.796623e-09	-5.277318e+01	-7.963526e+02
5.800000e-07	-6.351048e-09	-6.789925e-09	-5.262416e+01	-7.954436e+02
5.900000e-07	-6.332725e-09	-6.779790e-09	-5.247233e+01	-7.945135e+02
6.000000e-07	-6.314082e-09	-6.769887e-09	-5.231786e+01	-7.935622e+02
6.100000e-07	-6.295161e-09	-6.757456e-09	-5.216108e+01	-7.925895e+02
6.200000e-07	-6.275967e-09	-6.749941e-09	-5.200204e+01	-7.915954e+02
6.300000e-07	-6.256487e-09	-6.745352e-09	-5.184064e+01	-7.905798e+02
6.400000e-07	-6.236721e-09	-6.734388e-09	-5.167686e+01	-7.895428e+02
6.500000e-07	-6.216690e-09	-6.726741e-09	-5.151088e+01	-7.884843e+02
6.600000e-07	-6.196392e-09	-6.715951e-09	-5.134269e+01	-7.874043e+02
6.700000e-07	-6.175835e-09	-6.706126e-09	-5.117236e+01	-7.863030e+02
6.800000e-07	-6.155010e-09	-6.695172e-09	-5.099981e+01	-7.851805e+02
6.900000e-07	-6.133909e-09	-6.683978e-09	-5.082497e+01	-7.840368e+02
7.000000e-07	-6.112550e-09	-6.672393e-09	-5.064799e+01	-7.828721e+02
7.100000e-07	-6.090902e-09	-6.659105e-09	-5.046862e+01	-7.816865e+02
7.200000e-07	-6.068959e-09	-6.648785e-09	-5.028680e+01	-7.804803e+02
7.300000e-07	-6.046746e-09	-6.636403e-09	-5.010274e+01	-7.792535e+02
7.400000e-07	-6.024256e-09	-6.627056e-09	-4.991639e+01	-7.780064e+02
7.500000e-07	-6.001450e-09	-6.614768e-09	-4.972742e+01	-7.767392e+02
7.600000e-07	-5.978303e-09	-6.599468e-09	-4.953563e+01	-7.754521e+02
7.700000e-07	-5.954821e-09	-6.583746e-09	-4.934106e+01	-7.741452e+02
7.800000e-07	-5.931029e-09	-6.570571e-09	-4.914392e+01	-7.728189e+02
7.900000e-07	-5.906950e-09	-6.560649e-09	-4.894441e+01	-7.714732e+02
8.000000e-07	-5.882583e-09	-6.545958e-09	-4.874250e+01	-7.701083e+02
8.100000e-07	-5.857932e-09	-6.530700e-09	-4.853825e+01	-7.687246e+02
8.200000e-07	-5.833004e-09	-6.515592e-09	-4.833170e+01	-7.673220e+02
8.300000e-07	-5.807820e-09	-6.505603e-09	-4.812302e+01	-7.659008e+02
8.400000e-07	-5.782392e-09	-6.496423e-09	-4.791233e+01	-7.644612e+02
8.500000e-07	-5.756710e-09	-6.483860e-09	-4.769954e+01	-7.630031e+02
8.600000e-07	-5.730776e-09	-6.471951e-09	-4.748465e+01	-7.615269e+02
8.700000e-07	-5.704603e-09	-6.461941e-09	-4.726778e+01	-7.600324e+02
8.800000e-07	-5.678193e-09	-6.451589e-09	-4.704894e+01	-7.585199e+02
8.900000e-07	-5.651524e-09	-6.434578e-09	-4.682797e+01	-7.569892e+02
9.000000e-07	-5.624601e-09	-6.416616e-09	-4.660489e+01	-7.554405e+02
9.100000e-07	-5.597427e-09	-6.399763e-09	-4.637973e+01	-7.538737e+02
9.200000e-07	-5.569992e-09	-6.385194e-09	-4.615241e+01	-7.522888e+02
9.300000e-07	-5.542290e-09	-6.373881e-09	-4.592287e+01	-7.506857e+02
9.400000e-07	-5.514301e-09	-6.362791e-09	-4.569095e+01	-7.490643e+02
9.500000e-07	-5.486007e-09	-6.350342e-09	-4.545651e+01	-7.474244e+02
9.600000e-07	-5.457410e-09	-6.335403e-09	-4.521956e+01	-7.457660e+02
9.700000e-07	-5.428530e-09	-6.320689e-09	-4.498027e+01	-7.440888e+02
9.800000e-07	-5.399379e-09	-6.302980e-09	-4.473872e+01	-7.423927e+02
9.900000e-07	-5.369956e-09	-6.284236e-09	-4.449493e+01	-7.406774e+02
1.000000e-06	-5.340273e-09	-6.267996e-09	-4.424898e+01	-7.389427e+02
1.010000e-06	-5.310349e-09	-6.255410e-09	-4.400103e+01	-7.371883e+02
1.020000e-06	-5.280196e-09	-6.244180e-09	-4.375119e+01	-7.354138e+02
1.030000e-06	-5.249806e-09	-6.234092e-09	-4.349938e+01	-7.336191e+02
1.040000e-06	-5.219169e-09	-6.224958e-09	-4.324552e+01	-7.318037e+02
1.050000e-06	-5.188288e-09	-6.214206e-09	-4.298964e+01	-7.299673e+02
1.060000e-06	-5.157181e-09	-6.200069e-09	-4.273190e+01	-7.281096e+02
1.070000e-06	-5.125857e-09	-6.179352e-09	-4.247235e+01	-7.262302e+02
1.080000e-06	-5.094303e-09	-6.159223e-09	-4.221089e+01	-7.243286e+02
1.090000e-06	-5.062526e-09	-6.140318e-09	-4.194760e+01	-7.224046e+02
1.100000e-06	-5.030541e-09	-6.125472e-09	-4.168257e+01	-7.204578e+02
1.110000e-06	-4.998348e-09	-6.113878e-09	-4.141582e+01	-7.184877e+02
1.120000e-06	-4.965938e-09	-6.101445e-09	-4.114728e+01	-7.164939e+02
1.130000e-06	-4.933299e-09	-6.088627e-09	-4.087683e+01	-7.144762e+02
1.140000e-06	-4.900426e-09	-6.070808e-09	-4.060445e+01	-7.124340e+02
1.150000e-06	-4.867321e-09	-6.051844e-09	-4.033014e+01	-7.103671e+02
1.160000e-06	-4.833975e-09	-6.028749e-09	-4.005385e+01	-7.082750e+02
1.170000e-06	-4.800391e-09	-6.005553e-09	-3.977556e+01	-7.061574e+02
1.180000e-06	-4.766565e-09	-5.986617e-09	-3.949528e+01	-7.040140e+02
1.190000e-06	-4.732499e-09	-5.970658e-09	-3.921302e+01	-7.018444e+02
1.200000e-06	-4.698211e-09	-5.959195e-09	-3.892892e+01	-6.996483e+02
1.210000e-06	-4.663709e-09	-5.945451e-09	-3.864303e+01	-6.974255e+02
1.220000e-06	-4.628973e-09	-5.929169e-09	-3.835521e+01	-6.951756e+02
1.230000e-06	-4.594002e-09	-5.909241e-09	-3.806545e+01	-6.928985e+02
1.240000e-06	-4.558817e-09	-5.887616e-09	-3.777391e+01	-6.905938e+02
1.250000e-06	-4.523432e-09	-5.865196e-09	-3.748071e+01	-6.882614e+02
1.260000e-06	-4.487848e-09	-5.843627e-09	-3.718586e+01	-6.859011e+02
1.270000e-06	-4.452053e-09	-5.821706e-09	-3.688927e+01	-6.835127e+02
1.280000e-06	-4.416054e-09	-5.798937e-09	-3.659099e+01	-6.810960e+02
1.290000e-06	-4.379870e-09	-5.780190e-09	-3.629117e+01	-6.786510e+02
1.300000e-06	-4.343485e-09	-5.760391e-09	-3.598969e+01	-6.761775e+02
1.310000e-06	-4.306888e-09	-5.740149e-09	-3.568645e+01	-6.736754e+02
1.320000e-06	-4.270080e-09	-5.717079e-09	-3.538146e+01	-6.711448e+02
1.330000e-06	-4.233071e-09	-5.693000e-09	-3.507481e+01	-6.685855e+02
1.340000e-06	-4.195876e-09	-5.671512e-09	-3.476662e+01	-6.659975e+02
1.350000e-06	-4.158497e-09	-5.649336e-09	-3.445690e+01	-6.633809e+02
1.360000e-06	-4.120928e-09	-5.626042e-09	-3.414561e+01	-6.607356e+02
1.370000e-06	-4.083160e-09	-5.600205e-09	-3.383266e+01	-6.580616e+02
1.380000e-06	-4.045187e-09	-5.575598e-09	-3.351802e+01	-6.553591e+02
1.390000e-06	-4.007013e-09	-5.550802e-09	-3.320172e+01	-6.526279e+02
1.400000e-06	-3.968644e-09	-5.528629e-09	-3.288380e+01	-6.498683e+02
1.410000e-06	-3.930083e-09	-5.506532e-09	-3.256428e+01	-6.470802e+02
1.420000e-06	-3.891334e-09	-5.483905e-09	-3.224321e+01	-6.442637e+02
1.430000e-06	-3.852404e-09	-5.460399e-09	-3.192064e+01	-6.414189e+02
1.440000e-06	-3.813303e-09	-5.431314e-09	-3.159665e+01	-6.385459e+02
1.450000e-06	-3.774031e-09	-5.402182e-09	-3.127125e+01	-6.356447e+02
1.460000e-06	-3.734582e-09	-5.370582e-09	-3.094438e+01	-6.327153e+02
1.470000e-06	-3.694956e-09	-5.342321e-09	-3.061605e+01	-6.297580e+02
1.480000e-06	-3.655168e-09	-5.318455e-09	-3.028636e+01	-6.267726e+02
1.490000e-06	-3.615214e-09	-5.297818e-09	-2.995531e+01	-6.237593e+02
1.500000e-06	-3.575097e-09	-5.281864e-09	-2.962290e+01	-6.207180e+02
1.510000e-06	-3.534822e-09	-5.262353e-09	-2.928919e+01	-6.176489e+02
1.520000e-06	-3.494386e-09	-5.237185e-09	-2.895414e+01	-6.145519e+02
1.530000e-06	-3.453787e-09	-5.205024e-09	-2.861774e+01	-6.114270e+02
1.540000e-06	-3.413022e-09	-5.171774e-09	-2.827997e+01	-6.082741e+02
1.550000e-06	-3.372092e-09	-5.140745e-09	-2.794083e+01	-6.050934e+02
1.560000e-06	-3.330990e-09	-5.113251e-09	-2.760026e+01	-6.018846e+02
1.570000e-06	-3.289710e-09	-5.090430e-09	-2.725822e+01	-5.986477e+02
1.580000e-06	-3.248257e-09	-5.069142e-09	-2.691475e+01	-5.953826e+02
1.590000e-06	-3.206633e-09	-5.051774e-09	-2.656985e+01	-5.920892e+02
1.600000e-06	-3.164845e-09	-5.028301e-09	-2.622360e+01	-5.887673e+02
1.610000e-06	-3.122907e-09	-5.000055e-09	-2.587611e+01	-5.854168e+02
1.620000e-06	-3.080819e-09	-4.967280e-09	-2.552737e+01	-5.820376e+02
1.630000e-06	-3.038582e-09	-4.934845e-09	-2.517740e+01	-5.786293e+02
1.640000e-06	-2.996200e-09	-4.910190e-09	-2.482622e+01	-5.751918e+02
1.650000e-06	-2.953683e-09	-4.883966e-09	-2.447393e+01	-5.717249e+02
1.660000e-06	-2.911042e-09	-4.858179e-09	-2.412061e+01	-5.682282e+02
1.670000e-06	-2.868270e-09	-4.830365e-09	-2.376621e+01	-5.647015e+02
1.680000e-06	-2.825383e-09	-4.805916e-09	-2.341085e+01	-5.611445e+02
1.690000e-06	-2.782390e-09	-4.781672e-09	-2.305461e+01	-5.575569e+02
1.700000e-06	-2.739284e-09	-4.751544e-09	-2.269744e+01	-5.539384e+02
1.710000e-06	-2.696066e-09	-4.721389e-09	-2.233934e+01	-5.502885e+02
1.720000e-06	-2.652742e-09	-4.687701e-09	-2.198036e+01	-5.466070e+02
1.730000e-06	-2.609310e-09	-4.656065e-09	-2.162048e+01	-5.428934e+02
1.740000e-06	-2.565769e-09	-4.623665e-09	-2.125971e+01	-5.391475e+02
1.750000e-06	-2.522121e-09	-4.590328e-09	-2.089805e+01	-5.353687e+02
1.760000e-06	-2.478364e-09	-4.558491e-09	-2.053548e+01	-5.315568e+02
1.770000e-06	-2.434495e-09	-4.526900e-09	-2.017198e+01	-5.277112e+02
1.780000e-06	-2.390510e-09	-4.500095e-09	-1.980754e+01	-5.238317e+02
1.790000e-06	-2.346410e-09	-4.471232e-09	-1.944213e+01	-5.199177e+02
1.800000e-06	-2.302189e-09	-4.438161e-09	-1.907571e+01	-5.159688e+02
1.810000e-06	-2.257847e-09	-4.403317e-09	-1.870830e+01	-5.119847e+02
1.820000e-06	-2.213393e-09	-4.369782e-09	-1.833996e+01	-5.079649e+02
1.830000e-06	-2.168828e-09	-4.336628e-09	-1.797070e+01	-5.039090e+02
1.840000e-06	-2.124154e-09	-4.301016e-09	-1.760054e+01	-4.998166e+02
1.850000e-06	-2.079373e-09	-4.266918e-09	-1.722949e+01	-4.956872e+02
1.860000e-06	-2.034493e-09	-4.233075e-09	-1.685761e+01	-4.915204e+02
1.870000e-06	-1.989528e-09	-4.198925e-09	-1.648503e+01	-4.873159e+02
1.880000e-06	-1.944484e-09	-4.163474e-09	-1.611181e+01	-4.830731e+02
1.890000e-06	-1.899369e-09	-4.125587e-09	-1.573798e+01	-4.787918e+02
1.900000e-06	-1.854187e-09	-4.087116e-09	-1.536361e+01	-4.744714e+02
1.910000e-06	-1.808931e-09	-4.049539e-09	-1.498863e+01	-4.701115e+02
1.920000e-06	-1.763602e-09	-4.014533e-09	-1.461304e+01	-4.657118e+02
1.930000e-06	-1.718206e-09	-3.978266e-09	-1.423689e+01	-4.612718e+02
1.940000e-06	-1.672742e-09	-3.938590e-09	-1.386018e+01	-4.567911e+02
1.950000e-06	-1.627203e-09	-3.899501e-09	-1.348284e+01	-4.522694e+02
1.960000e-06	-1.581588e-09	-3.862607e-09	-1.310488e+01	-4.477061e+02
1.970000e-06	-1.535903e-09	-3.823996e-09	-1.272634e+01	-4.431008e+02
1.980000e-06	-1.490145e-09	-3.782752e-09	-1.234719e+01	-4.384532e+02
1.990000e-06	-1.444315e-09	-3.739615e-09	-1.196746e+01	-4.337627e+02
2.000000e-06	-1.398410e-09	-3.696234e-09	-1.158709e+01	-4.290289e+02
2.010000e-06	-1.352430e-09	-3.653837e-09	-1.120610e+01	-4.242514e+02
2.020000e-06	-1.306380e-09	-3.611607e-09	-1.082453e+01	-4.194297e+02
2.030000e-06	-1.260263e-09	-3.568590e-09	-1.044241e+01	-4.145632e+02
2.040000e-06	-1.214076e-09	-3.525267e-09	-1.005972e+01	-4.096515e+02
2.050000e-06	-1.167827e-09	-3.482322e-09	-9.676496e+00	-4.046941e+02
2.060000e-06	-1.121518e-09	-3.437383e-09	-9.292786e+00	-3.996903e+02
2.070000e-06	-1.075156e-09	-3.391247e-09	-8.908636e+00	-3.946397e+02
2.080000e-06	-1.028750e-09	-3.343849e-09	-8.524123e+00	-3.895415e+02
2.090000e-06	-9.823003e-10	-3.296279e-09	-8.139244e+00	-3.843952e+02
2.100000e-06	-9.358093e-10	-3.250752e-09	-7.754024e+00	-3.792002e+02
2.110000e-06	-8.892874e-10	-3.206951e-09	-7.368548e+00	-3.739557e+02
2.120000e-06	-8.427414e-10	-3.164279e-09	-6.982872e+00	-3.686610e+02
2.130000e-06	-7.961720e-10	-3.121059e-09	-6.597002e+00	-3.633155e+02
2.140000e-06	-7.495737e-10	-3.076778e-09	-6.210893e+00	-3.579182e+02
2.150000e-06	-7.029452e-10	-3.028423e-09	-5.824534e+00	-3.524684e+02
2.160000e-06	-6.562910e-10	-2.977326e-09	-5.437962e+00	-3.469654e+02
2.170000e-06	-6.096103e-10	-2.925761e-09	-5.051169e+00	-3.414081e+02
2.180000e-06	-5.629033e-10	-2.873824e-09	-4.664160e+00	-3.357957e+02
2.190000e-06	-5.161677e-10	-2.824212e-09	-4.276914e+00	-3.301273e+02
2.200000e-06	-4.694060e-10	-2.778029e-09	-3.889450e+00	-3.244019e+02
2.210000e-06	-4.226221e-10	-2.732271e-09	-3.501803e+00	-3.186185e+02
2.220000e-06	-3.758106e-10	-2.681120e-09	-3.113927e+00	-3.127762e+02
2.230000e-06	-3.289739e-10	-2.625942e-09	-2.725843e+00	-3.068738e+02
2.240000e-06	-2.821140e-10	-2.572749e-09	-2.337567e+00	-3.009104e+02
2.250000e-06	-2.352359e-10	-2.521208e-09	-1.949139e+00	-2.948849e+02
2.260000e-06	-1.883487e-10	-2.468836e-09	-1.560636e+00	-2.887962e+02
2.270000e-06	-1.414543e-10	-2.415615e-09	-1.172074e+00	-2.826432e+02
2.280000e-06	-9.455539e-11	-2.361591e-09	-7.834739e-01	-2.764248e+02
2.290000e-06	-4.765503e-11	-2.308210e-09	-3.948620e-01	-2.701400e+02
2.300000e-06	-7.578717e-13	-2.254815e-09	-6.276418e-03	-2.637876e+02
2.310000e-06	4.613290e-11	-2.198914e-09	3.822561e-01	-2.573666e+02
2.320000e-06	9.301267e-11	-2.141852e-09	7.706974e-01	-2.508759e+02
2.330000e-06	1.398785e-10	-2.086934e-09	1.159023e+00	-2.443145e+02
2.340000e-06	1.867307e-10	-2.034867e-09	1.547236e+00	-2.376815e+02
2.350000e-06	2.335672e-10	-1.983004e-09	1.935319e+00	-2.309758e+02
2.360000e-06	2.803892e-10	-1.926477e-09	2.323281e+00	-2.241965e+02
2.370000e-06	3.271939e-10	-1.865293e-09	2.711100e+00	-2.173427e+02
2.380000e-06	3.739850e-10	-1.803901e-09	3.098807e+00	-2.104137e+02
2.390000e-06	4.207614e-10	-1.744983e-09	3.486391e+00	-2.034087e+02
2.400000e-06	4.675192e-10	-1.686166e-09	3.873823e+00	-1.963270e+02
2.410000e-06	5.142616e-10	-1.627310e-09	4.261125e+00	-1.891680e+02
2.420000e-06	5.609877e-10	-1.567397e-09	4.648293e+00	-1.819312e+02
2.430000e-06	6.076955e-10	-1.505464e-09	5.035309e+00	-1.746163e+02
2.440000e-06	6.543820e-10	-1.442930e-09	5.422149e+00	-1.672228e+02
2.450000e-06	7.010485e-10	-1.377210e-09	5.808823e+00	-1.597505e+02
2.460000e-06	7.476887e-10	-1.313692e-09	6.195280e+00	-1.521995e+02
2.470000e-06	7.942944e-10	-1.251174e-09	6.581451e+00	-1.445696e+02
2.480000e-06	8.408678e-10	-1.185966e-09	6.967353e+00	-1.368612e+02
2.490000e-06	8.874023e-10	-1.124425e-09	7.352933e+00	-1.290743e+02
2.500000e-06	9.338904e-10	-1.059738e-09	7.738130e+00	-1.212096e+02
2.510000e-06	9.803290e-10	-9.920470e-10	8.122915e+00	-1.132674e+02
2.520000e-06	1.026715e-09	-9.192052e-10	8.507268e+00	-1.052487e+02
2.530000e-06	1.073047e-09	-8.423498e-10	8.891165e+00	-9.715421e+01
2.540000e-06	1.119314e-09	-7.708231e-10	9.274531e+00	-8.898498e+01
2.550000e-06	1.165518e-09	-6.996020e-10	9.657370e+00	-8.074221e+01
2.560000e-06	1.211662e-09	-6.312592e-10	1.003971e+01	-7.242725e+01
2.570000e-06	1.257742e-09	-5.631447e-10	1.042153e+01	-6.404161e+01
2.580000e-06	1.303757e-09	-4.937372e-10	1.080281e+01	-5.558698e+01
2.590000e-06	1.349718e-09	-4.228838e-10	1.118364e+01	-4.706520e+01
2.600000e-06	1.395622e-09	-3.473639e-10	1.156400e+01	-3.847828e+01
2.610000e-06	1.441463e-09	-2.695285e-10	1.194383e+01	-2.982839e+01
2.620000e-06	1.487242e-09	-1.890917e-10	1.232315e+01	-2.111788e+01
2.630000e-06	1.532956e-09	-1.130887e-10	1.270193e+01	-1.234925e+01
2.640000e-06	1.578603e-09	-4.009309e-11	1.308015e+01	-3.525144e+00
2.650000e-06	1.624179e-09	3.409100e-11	1.345780e+01	5.351616e+00
2.660000e-06	1.669684e-09	1.099308e-10	1.383484e+01	1.427807e+01
2.670000e-06	1.715113e-09	1.894334e-10	1.421127e+01	2.325111e+01
2.680000e-06	1.760467e-09	2.688467e-10	1.458706e+01	3.226750e+01
2.690000e-06	1.805744e-09	3.507344e-10	1.496222e+01	4.132385e+01
2.700000e-06	1.850940e-09	4.341881e-10	1.533671e+01	5.041665e+01
2.710000e-06	1.896050e-09	5.167358e-10	1.571049e+01	5.954230e+01
2.720000e-06	1.941073e-09	5.958012e-10	1.608354e+01	6.869705e+01
2.730000e-06	1.986011e-09	6.732403e-10	1.645590e+01	7.787708e+01
2.740000e-06	2.030857e-09	7.506683e-10	1.682749e+01	8.707846e+01
2.750000e-06	2.075601e-09	8.262169e-10	1.719823e+01	9.629719e+01
2.760000e-06	2.120239e-09	9.049378e-10	1.756810e+01	1.055292e+02
2.770000e-06	2.164773e-09	9.851400e-10	1.793710e+01	1.147703e+02
2.780000e-06	2.209206e-09	1.067315e-09	1.830527e+01	1.240164e+02
2.790000e-06	2.253534e-09	1.149815e-09	1.867257e+01	1.332632e+02
2.800000e-06	2.297756e-09	1.232235e-09	1.903898e+01	1.425065e+02
2.810000e-06	2.341874e-09	1.315363e-09	1.940455e+01	1.517419e+02
2.820000e-06	2.385890e-09	1.395863e-09	1.976926e+01	1.609653e+02
2.830000e-06	2.429801e-09	1.474173e-09	2.013310e+01	1.701724e+02
2.840000e-06	2.473604e-09	1.548934e-09	2.049605e+01	1.793588e+02
2.850000e-06	2.517303e-09	1.624437e-09	2.085813e+01	1.885205e+02
2.860000e-06	2.560899e-09	1.700183e-09	2.121937e+01	1.976532e+02
